wavelength	P1	P2	P3	P4	P5	P6	P7	P8	P9
350	0.011774652	0.015926086	0.009567886	0.011600074	0.008133525	0.007099157	0.010396603	0.011119315	0.009398907
351	0.011696808	0.015950218	0.009509898	0.011625892	0.008135769	0.00714025	0.010347878	0.011086146	0.009358254
352	0.011626209	0.015969131	0.009455907	0.011644138	0.008137796	0.007174276	0.010304755	0.011053672	0.009321543
353	0.011562855	0.015982825	0.009405915	0.011654814	0.008139605	0.007201236	0.010267233	0.011021895	0.009288774
354	0.011506746	0.015991299	0.00935992	0.011657919	0.008141197	0.00722113	0.010235313	0.010990813	0.009259947
355	0.011457881	0.015994554	0.009317923	0.011653453	0.00814257	0.007233958	0.010208994	0.010960428	0.009235062
356	0.01141626	0.01599259	0.009279923	0.011641416	0.008143726	0.00723972	0.010188276	0.010930739	0.009214118
357	0.01137687	0.015993297	0.009261463	0.011608388	0.008170706	0.007228058	0.010182108	0.010900642	0.009182683
358	0.011372489	0.015973252	0.009223806	0.01156819	0.008181147	0.007223268	0.010169078	0.010867586	0.009184033
359	0.011368545	0.015943481	0.009179316	0.011522287	0.008174102	0.007223197	0.010142514	0.010819375	0.009207442
360	0.011346745	0.01589974	0.009162728	0.011476552	0.008168884	0.007197989	0.0101231	0.010791864	0.009210728
361	0.011338128	0.015850892	0.009141652	0.011445883	0.008124367	0.007158098	0.010132071	0.010791379	0.00918998
362	0.01132123	0.015807937	0.00913061	0.011428381	0.008068567	0.007126161	0.010143596	0.01078531	0.009162321
363	0.011312273	0.015752586	0.00914598	0.011414211	0.008034928	0.007107134	0.0101262	0.01076608	0.009124924
364	0.011339111	0.015690392	0.00916011	0.01140074	0.008019154	0.007095352	0.010112958	0.010752754	0.00906246
365	0.011349214	0.015647218	0.009163797	0.011393083	0.008012712	0.007093783	0.010096286	0.010735739	0.00900376
366	0.01132399	0.015623388	0.009163553	0.011395241	0.00801201	0.007101154	0.010073119	0.010707965	0.008962814
367	0.011286693	0.015610413	0.009184556	0.01139858	0.008025735	0.00711331	0.010063579	0.010684235	0.008943219
368	0.011226944	0.015625805	0.009203023	0.011404911	0.008057082	0.007116384	0.010065852	0.010675608	0.008946275
369	0.0111784	0.015651269	0.009204004	0.011418921	0.008086689	0.007114682	0.010069645	0.010675954	0.00895203
370	0.011162412	0.015661612	0.009184768	0.011427098	0.008103834	0.007119558	0.010064473	0.010684245	0.008976498
371	0.011146226	0.015649927	0.009168758	0.011431428	0.0081148	0.007119719	0.010063311	0.010689641	0.009025235
372	0.01111669	0.015612456	0.009161363	0.011429797	0.008110014	0.007107256	0.010064786	0.010678733	0.009064017
373	0.011093424	0.015557496	0.009145094	0.01142341	0.008084681	0.007075065	0.010070001	0.010663933	0.009080464
374	0.011067545	0.01551691	0.009112164	0.011414445	0.008056573	0.007031328	0.010073197	0.010639837	0.009088847
375	0.011052878	0.015502641	0.009095951	0.011410215	0.008029595	0.006993327	0.010069789	0.010611652	0.009082221
376	0.011050382	0.015477363	0.00909222	0.011409628	0.008004163	0.006960909	0.010069392	0.010595933	0.009056483
377	0.011026675	0.015429976	0.009092971	0.011412215	0.007983575	0.006935097	0.010084756	0.010588461	0.009028277
378	0.011010435	0.015397686	0.009106161	0.011427455	0.00796911	0.006920797	0.010097776	0.010575739	0.008991393
379	0.011000869	0.015387238	0.009114663	0.011452334	0.007974984	0.006910752	0.010107779	0.010565941	0.008972385
380	0.010987111	0.015398853	0.009110664	0.011470585	0.008000047	0.006907897	0.010114457	0.010573522	0.008979136
381	0.010996885	0.015407163	0.009118133	0.01148704	0.008008247	0.006932523	0.010130938	0.010591131	0.008950973
382	0.011009101	0.015407055	0.009121778	0.011501758	0.008017951	0.006963031	0.010147336	0.010612495	0.008919831
383	0.011003782	0.015400426	0.009121473	0.011518848	0.00802775	0.006983534	0.010166406	0.010633188	0.00891753
384	0.010985725	0.015387128	0.009129572	0.011543662	0.008010042	0.006990134	0.010183434	0.010633932	0.008910011
385	0.010984189	0.015390847	0.009127968	0.011562128	0.007991907	0.006993725	0.010197848	0.010638676	0.008887343
386	0.011001235	0.015413091	0.009119927	0.011579087	0.007980852	0.006985172	0.010212563	0.010662625	0.008877494
387	0.011009296	0.015448007	0.009139306	0.011607573	0.007978415	0.006971116	0.010230548	0.0106895	0.008901137
388	0.011021585	0.01545053	0.009163022	0.011641018	0.007981038	0.006956274	0.010244348	0.010704705	0.008931614
389	0.011034941	0.01544148	0.009188317	0.011672088	0.008005527	0.006960502	0.010258543	0.010719269	0.008953891
390	0.011059686	0.015467013	0.009227247	0.011706629	0.008052633	0.006991609	0.01027356	0.010734044	0.008971869
391	0.011095141	0.015479258	0.009256653	0.011748993	0.00810348	0.007018629	0.010312428	0.010750493	0.009009155
392	0.011135021	0.015508628	0.009286906	0.011790771	0.008154978	0.007051863	0.010369036	0.010784616	0.00904714
393	0.01117471	0.015554642	0.009329555	0.01183528	0.008199407	0.007095727	0.010429456	0.010835683	0.009068122
394	0.011204284	0.015592831	0.009366065	0.011898722	0.008250254	0.007123244	0.010473951	0.0108874	0.009104092
395	0.011233124	0.015625085	0.009414059	0.011973853	0.008291541	0.007144612	0.010518508	0.010936779	0.009145341
396	0.011265307	0.015662008	0.009473218	0.012059311	0.008313127	0.007177705	0.010577294	0.010991441	0.00918013
397	0.011297102	0.015718975	0.009522476	0.012139218	0.008342799	0.007230757	0.010644011	0.011057996	0.009206904
398	0.011351239	0.015785338	0.009575113	0.012210072	0.008387353	0.007274781	0.010713046	0.011128473	0.009257956
399	0.011420742	0.015860243	0.009631987	0.012287417	0.008438411	0.007309986	0.010778507	0.011197951	0.009336183
400	0.011504713	0.01595134	0.009694822	0.012373195	0.008495537	0.007360714	0.010838362	0.011259926	0.009411032
401	0.011591832	0.016068615	0.009774646	0.012456517	0.008574217	0.007438835	0.01091661	0.011334317	0.009473549
402	0.011687686	0.016191206	0.009866601	0.012537816	0.008662592	0.007517697	0.011013689	0.011417224	0.0095401
403	0.011801935	0.016306173	0.009959392	0.01262715	0.008742692	0.00757569	0.011121853	0.011500176	0.009623028
404	0.011922698	0.016455584	0.010053446	0.012731029	0.008828844	0.007633371	0.01122984	0.011594777	0.009715215
405	0.012040903	0.01661841	0.01014657	0.012855942	0.00892454	0.00769625	0.011334652	0.011694982	0.009810502
406	0.012152514	0.016771808	0.010243911	0.012997607	0.009021395	0.007765476	0.01143872	0.011794076	0.009907568
407	0.012258956	0.016929809	0.010356109	0.013142079	0.009117219	0.007847103	0.011551165	0.011898881	0.010005379
408	0.012358937	0.01708991	0.010469818	0.013297336	0.009209238	0.007936362	0.01167575	0.012016154	0.01010208
409	0.012469726	0.017249641	0.010582535	0.013455259	0.009300198	0.008028123	0.011805541	0.012142358	0.010203061
410	0.012612042	0.017414758	0.010703386	0.013604336	0.009405028	0.008121078	0.011936318	0.012272372	0.010314912
411	0.012750423	0.017594081	0.010823664	0.013760909	0.009519418	0.008224831	0.012071959	0.012410261	0.010430397
412	0.012892339	0.017783856	0.010945007	0.013922794	0.009636419	0.008342262	0.01221131	0.012557373	0.010545431
413	0.013049544	0.017977899	0.011075979	0.014082521	0.00975638	0.008466962	0.0123555	0.012708996	0.010656743
414	0.013207767	0.018169615	0.011214974	0.014242497	0.009880176	0.008582198	0.012502036	0.012858288	0.01077263
415	0.013366222	0.018364796	0.011351538	0.014402302	0.01000642	0.008693639	0.01265288	0.013007899	0.010894917
416	0.013526034	0.018562498	0.011485125	0.014566711	0.010132691	0.008812015	0.012810023	0.013156347	0.01102009
417	0.013687863	0.018759863	0.011622579	0.014736815	0.010261769	0.008940594	0.012969444	0.013301178	0.011146469
418	0.013847088	0.018958952	0.011757316	0.014909298	0.010387866	0.009069188	0.013128759	0.013445091	0.011275092
419	0.01400903	0.019156929	0.011891199	0.015084376	0.01051092	0.009194559	0.013287477	0.013591148	0.011410705
420	0.014169444	0.019345334	0.012020051	0.015258622	0.010633676	0.009313991	0.013442532	0.013736147	0.011546098
421	0.014320899	0.019527099	0.012145834	0.01543219	0.010754118	0.009429683	0.013593966	0.013874943	0.011676412
422	0.014464428	0.019714155	0.012273944	0.015601367	0.010872103	0.009545794	0.01373641	0.014006094	0.011799195
423	0.014600616	0.019910467	0.012403313	0.015768431	0.010990185	0.009666054	0.013873551	0.014130826	0.011912113
424	0.01473906	0.020099034	0.012523093	0.015935058	0.01110231	0.009788828	0.014010443	0.014251381	0.012018123
425	0.014872249	0.020276043	0.012638728	0.016094068	0.011208299	0.009906324	0.014147069	0.014371425	0.012118772
426	0.014994514	0.020441623	0.012752864	0.016245886	0.011310692	0.010013038	0.014281649	0.014489391	0.012216007
427	0.015114737	0.020596588	0.012860901	0.016392428	0.011408746	0.010112755	0.014408609	0.014604012	0.012314914
428	0.015229997	0.020732054	0.012962689	0.016538269	0.011499103	0.010210125	0.014529397	0.01471291	0.012411069
429	0.015337977	0.020848111	0.013058618	0.016679522	0.011578831	0.010303547	0.014642398	0.01481588	0.012500283
430	0.015434821	0.020956328	0.013141322	0.016806513	0.011650461	0.010387265	0.014745086	0.014916637	0.012581198
431	0.015523833	0.021057679	0.013215861	0.016921034	0.011718299	0.010465715	0.014837587	0.015010859	0.012662268
432	0.015606482	0.021149457	0.013287205	0.017025362	0.011784768	0.010536764	0.014923753	0.015095116	0.012734335
433	0.015680651	0.021240209	0.013359095	0.01712501	0.011852138	0.01059997	0.015007868	0.015170618	0.012792672
434	0.015753551	0.021344234	0.013435626	0.017217635	0.011917818	0.010661151	0.015080877	0.015240718	0.012852252
435	0.015827247	0.021452243	0.013508522	0.017306574	0.011982313	0.010723844	0.015150894	0.015307803	0.012913359
436	0.015899235	0.021555176	0.013572888	0.017393789	0.012044413	0.010787469	0.015226466	0.015373008	0.01297274
437	0.015968048	0.021657784	0.013638757	0.017472063	0.012099895	0.010846326	0.015301179	0.015438108	0.013029963
438	0.016030888	0.021756022	0.013701847	0.017549958	0.012150815	0.010897389	0.015372609	0.015499721	0.013089336
439	0.016085819	0.021843216	0.013758421	0.017631189	0.01219882	0.010943583	0.015439613	0.015555071	0.013146842
440	0.01613503	0.021922045	0.013811065	0.017713029	0.01224749	0.010993316	0.01550699	0.015610866	0.013197464
441	0.016184891	0.022001456	0.013863301	0.017786857	0.012296435	0.011044147	0.015573013	0.015665761	0.013237801
442	0.016235738	0.022076604	0.013912654	0.017856177	0.012345226	0.011095416	0.015637921	0.015719173	0.013274095
443	0.016285002	0.022143673	0.013956085	0.017929067	0.012395049	0.01114705	0.015705412	0.015769882	0.013311295
444	0.016336457	0.022206799	0.014001215	0.018005627	0.012444599	0.011195326	0.015779451	0.015817342	0.013341261
445	0.016390643	0.022272252	0.014052328	0.01808276	0.012493241	0.011238808	0.015854076	0.015863925	0.013368761
446	0.016444343	0.022343459	0.014107587	0.018159611	0.012540602	0.011280562	0.015923923	0.015911427	0.013405016
447	0.016496828	0.022410907	0.014158946	0.018236874	0.012587003	0.011322969	0.015992356	0.015959165	0.013447857
448	0.016547884	0.02248331	0.014208382	0.018310581	0.012630192	0.01136523	0.016060375	0.016003379	0.013489754
449	0.016596255	0.022564074	0.014256996	0.018379943	0.012669064	0.011404072	0.016126327	0.016044837	0.013528696
450	0.016639248	0.022643978	0.014301475	0.018447289	0.012705641	0.011437178	0.016187719	0.01608769	0.013568137
451	0.016675483	0.022711286	0.014344059	0.018510761	0.012738621	0.011466836	0.016242563	0.016131236	0.013601569
452	0.016710233	0.022770857	0.014386552	0.018570559	0.012773007	0.011498043	0.016293647	0.016174049	0.013627661
453	0.016744122	0.022828374	0.014423157	0.018623234	0.012809272	0.011527945	0.016339579	0.016211586	0.013646298
454	0.016774204	0.02288045	0.014450296	0.018672117	0.012840534	0.011551859	0.016376302	0.016246269	0.013662955
455	0.016799311	0.022919772	0.014469498	0.018716358	0.012865297	0.011569909	0.016409552	0.016275949	0.013677793
456	0.016818171	0.022949291	0.014485945	0.018754218	0.012883361	0.011582719	0.016442427	0.01629877	0.013687213
457	0.016828937	0.022972535	0.014501379	0.018787693	0.012894385	0.011590342	0.016467578	0.016318157	0.013692141
458	0.016832965	0.022986796	0.014515607	0.018815735	0.012902394	0.011595612	0.016484282	0.016332091	0.013699047
459	0.016830997	0.022993419	0.014525455	0.018837733	0.012909518	0.011601873	0.01649822	0.016338643	0.01370969
460	0.016825561	0.023002203	0.014530877	0.018851424	0.012914763	0.011608509	0.01651527	0.016338008	0.013716064
461	0.016820491	0.023016922	0.014535726	0.018865829	0.012917378	0.011614244	0.016528355	0.016337459	0.013721647
462	0.016817173	0.023029332	0.014542019	0.018882879	0.012919357	0.011616123	0.016539414	0.016339746	0.01372664
463	0.016813636	0.023030715	0.014550282	0.018899745	0.012922252	0.011613956	0.016553962	0.016342353	0.013727751
464	0.016808949	0.023031533	0.014559336	0.018919597	0.012924761	0.011612727	0.01656802	0.016345997	0.013725981
465	0.016804977	0.023039486	0.014568898	0.018938396	0.012927394	0.011613485	0.01658102	0.016351225	0.013722986
466	0.016802666	0.023053695	0.014576615	0.018952357	0.012928053	0.011613442	0.016591762	0.016358588	0.013718789
467	0.016802275	0.023058584	0.014576292	0.018964095	0.012927809	0.011615193	0.016602509	0.016363924	0.013713143
468	0.016798392	0.023053714	0.014573897	0.018977344	0.012926306	0.011617197	0.016613562	0.016367678	0.013705674
469	0.016788604	0.023046963	0.014574282	0.018995956	0.012923361	0.011619009	0.016621461	0.016371523	0.013697881
470	0.016778459	0.023039873	0.014576758	0.019016586	0.012922278	0.011622213	0.016626117	0.016373753	0.013693388
471	0.016768789	0.023032298	0.014578461	0.019027175	0.012922123	0.011623969	0.016631566	0.016372761	0.013688636
472	0.016757875	0.023024457	0.014576275	0.019032101	0.012920649	0.011622827	0.01663725	0.016369304	0.013682968
473	0.016750092	0.023023295	0.014576696	0.019048674	0.01292068	0.011621591	0.016640198	0.016369461	0.013683613
474	0.016746054	0.02302749	0.014583306	0.019062419	0.012924338	0.011617922	0.016648086	0.016370998	0.013684363
475	0.01674632	0.023032535	0.014593687	0.019074698	0.012929522	0.011612407	0.016661348	0.016374113	0.013684444
476	0.016748759	0.023041756	0.014604606	0.019093792	0.0129307	0.011609022	0.016673291	0.016381786	0.013685387
477	0.016750003	0.023064445	0.014617223	0.019111222	0.012929167	0.011609568	0.016689011	0.016393146	0.013682644
478	0.016751672	0.023087497	0.014625978	0.019126792	0.012932292	0.011613879	0.016703596	0.016403806	0.013679747
479	0.016754202	0.023102291	0.014628304	0.019142794	0.012940673	0.011619278	0.016713021	0.016411066	0.013678745
480	0.016754826	0.023120277	0.014636097	0.019156396	0.012946912	0.011621791	0.016724559	0.016417659	0.013677945
481	0.016755661	0.023137426	0.014647895	0.019171793	0.012956717	0.011626631	0.016739028	0.016423982	0.013678387
482	0.016760049	0.023150672	0.014658991	0.01918813	0.012968971	0.011634764	0.016751995	0.016429678	0.013680565
483	0.016766517	0.023156145	0.014667776	0.019195851	0.012975767	0.011638807	0.016759567	0.016433312	0.013682201
484	0.016761875	0.023150597	0.014672995	0.01920286	0.012978578	0.011639244	0.0167666	0.016437226	0.013683468
485	0.01675294	0.023140384	0.01467772	0.019217798	0.012979518	0.01163952	0.016775702	0.01644402	0.013688758
486	0.016749853	0.023130827	0.014684008	0.019231547	0.012977805	0.011639437	0.016784511	0.016450593	0.013695972
487	0.016751571	0.02312722	0.014691396	0.019252612	0.012978996	0.011641028	0.016795693	0.016460974	0.013704612
488	0.016754329	0.023133333	0.014700727	0.019282194	0.012980621	0.011647951	0.016813386	0.016475524	0.013711497
489	0.016755602	0.023153529	0.014715686	0.019314802	0.012982643	0.011661778	0.016840534	0.016493829	0.013714067
490	0.01676519	0.023174207	0.014737605	0.019353174	0.012997639	0.011679328	0.016871188	0.016515705	0.013723433
491	0.016782814	0.023203839	0.014764098	0.019398731	0.013019928	0.011699719	0.016906699	0.016540537	0.013740459
492	0.016809533	0.02325506	0.01479739	0.019451902	0.013043989	0.011724778	0.016952887	0.016571416	0.013762231
493	0.016851412	0.023319458	0.014838683	0.019516513	0.01308129	0.011760897	0.017011226	0.016611704	0.013789423
494	0.016903541	0.023390492	0.014885785	0.019593195	0.01312798	0.011800945	0.01707638	0.016657467	0.013824564
495	0.016962545	0.023470236	0.014938568	0.019679924	0.013179284	0.011842011	0.017148288	0.016710027	0.013866867
496	0.017024701	0.023561567	0.01499831	0.019775762	0.013238581	0.011889245	0.017234148	0.016773566	0.013913681
497	0.017094429	0.023666642	0.015062569	0.019882977	0.013302788	0.011943875	0.017326247	0.016843822	0.013968139
498	0.017175214	0.023782412	0.015135219	0.020005599	0.013374231	0.012007266	0.017427898	0.016921983	0.014031886
499	0.017262454	0.023907771	0.015220686	0.020144683	0.013458586	0.012081259	0.017547723	0.017012765	0.014102346
500	0.01735883	0.024045992	0.015314264	0.020298476	0.013552358	0.01216826	0.017681003	0.017115194	0.014177501
501	0.01746496	0.024192545	0.015419274	0.020464812	0.013652388	0.012264535	0.017827905	0.017226887	0.014260704
502	0.01758799	0.02435308	0.015541775	0.020649168	0.013765252	0.012369726	0.017991661	0.01735211	0.014359039
503	0.017729877	0.024538196	0.015675271	0.020855156	0.013892723	0.012489157	0.018170813	0.017491869	0.014469725
504	0.017888117	0.024750134	0.01582361	0.021083009	0.014031967	0.012624212	0.018368751	0.017651977	0.014594744
505	0.018065676	0.024989254	0.015992027	0.02133354	0.014185879	0.012774624	0.018589139	0.017834608	0.014736099
506	0.01826425	0.025254784	0.016178653	0.021609851	0.014358019	0.012937003	0.018831461	0.018033328	0.014895124
507	0.018487772	0.025554691	0.016387485	0.021910695	0.01454788	0.013117957	0.019095417	0.018254208	0.015070351
508	0.018736976	0.02589416	0.016618427	0.022234916	0.014755065	0.013318643	0.019381578	0.018500556	0.015261826
509	0.019005904	0.026269074	0.016867868	0.022583567	0.014979623	0.01353458	0.01968944	0.018768198	0.015473228
510	0.019298663	0.026673777	0.017139028	0.022960991	0.01522385	0.013769109	0.020027156	0.019057254	0.015708251
511	0.019616315	0.027111616	0.017435026	0.023366773	0.015488702	0.014026594	0.02039604	0.019369885	0.015965827
512	0.019959659	0.027592208	0.017755248	0.023799687	0.015775518	0.014308955	0.020791767	0.01970869	0.016244996
513	0.020332893	0.028110344	0.018102972	0.024264928	0.016087457	0.014611233	0.021218985	0.020076613	0.016553241
514	0.02074084	0.028675279	0.018480502	0.024771123	0.016430441	0.014939091	0.021683121	0.020477979	0.016891843
515	0.021180926	0.029287994	0.018884444	0.025318724	0.016804454	0.015293466	0.022180607	0.020914596	0.017255525
516	0.021642325	0.02994008	0.019316073	0.025903464	0.017198107	0.015667708	0.022709999	0.021389026	0.017642288
517	0.022130869	0.030635641	0.019774517	0.026524184	0.017613204	0.016060822	0.023271967	0.021894663	0.018053425
518	0.022649479	0.031375177	0.02025796	0.027177236	0.018052293	0.016474343	0.023863293	0.022425311	0.01848622
519	0.023190302	0.032152412	0.020764925	0.027854937	0.018511287	0.016909161	0.024476632	0.022979493	0.018936598
520	0.023748589	0.032957296	0.021288747	0.028545026	0.018984774	0.017353141	0.025105657	0.023549367	0.019402821
521	0.024325042	0.033792073	0.021826537	0.029247392	0.019474009	0.01780602	0.025752984	0.024132743	0.019887055
522	0.024914524	0.034652133	0.022374233	0.029959366	0.01997454	0.018271043	0.026415312	0.024724689	0.020385785
523	0.025509635	0.035525951	0.022932599	0.030676685	0.020476527	0.018742709	0.027084443	0.025326081	0.020891534
524	0.026105616	0.036402019	0.023494865	0.031394167	0.020977873	0.019217592	0.027753073	0.025933258	0.021400881
525	0.02669894	0.037267445	0.024049792	0.032107853	0.021478252	0.019688813	0.028413471	0.026539095	0.021911398
526	0.02728075	0.038113885	0.024592401	0.032813513	0.021971649	0.020151206	0.029060486	0.027134631	0.022414857
527	0.027844227	0.038937387	0.025120485	0.033502271	0.022451091	0.020599545	0.029691238	0.027716636	0.022903522
528	0.028382966	0.039731177	0.025630089	0.034165071	0.022911106	0.021027349	0.030298862	0.028279657	0.023370931
