wavelength	0
350	0.030888537
351	0.030937083
352	0.030993882
353	0.031058934
354	0.03113224
355	0.031213799
356	0.031303612
357	0.031389146
358	0.031492072
359	0.031613076
360	0.031740706
361	0.031881087
362	0.03201603
363	0.032109631
364	0.032203169
365	0.032303376
366	0.032408357
367	0.032539985
368	0.032696827
369	0.032867492
370	0.033055325
371	0.033255445
372	0.033455604
373	0.033661162
374	0.03390267
375	0.034138
376	0.034350188
377	0.034555345
378	0.034774646
379	0.035006646
380	0.035258335
381	0.035534635
382	0.035822397
383	0.03611932
384	0.036425211
385	0.036755231
386	0.037089474
387	0.037390053
388	0.037654778
389	0.037918052
390	0.038206928
391	0.038501253
392	0.038814459
393	0.039157433
394	0.039501061
395	0.039826148
396	0.040133019
397	0.04042053
398	0.040671745
399	0.040892238
400	0.041091461
401	0.04129176
402	0.041500825
403	0.041722988
404	0.041974384
405	0.042239219
406	0.042501591
407	0.042764231
408	0.043026011
409	0.043282623
410	0.043535169
411	0.043787992
412	0.044042919
413	0.04429675
414	0.044550228
415	0.044813316
416	0.045086905
417	0.045360533
418	0.045635709
419	0.045920313
420	0.046205108
421	0.046503883
422	0.04681262
423	0.047127831
424	0.047452977
425	0.047787024
426	0.048130327
427	0.048489567
428	0.048864668
429	0.049250903
430	0.049642704
431	0.050034851
432	0.050418995
433	0.050798399
434	0.051167454
435	0.051530476
436	0.051894911
437	0.052263519
438	0.052631577
439	0.052991385
440	0.053351645
441	0.053712592
442	0.054067736
443	0.054411506
444	0.054740987
445	0.055056828
446	0.055362226
447	0.055656934
448	0.055939403
449	0.056208272
450	0.056459115
451	0.056686676
452	0.056902728
453	0.057109713
454	0.057308776
455	0.057499314
456	0.057684928
457	0.057869955
458	0.058046281
459	0.05821079
460	0.058367236
461	0.058521455
462	0.05867422
463	0.058820374
464	0.058962154
465	0.05910269
466	0.059244824
467	0.059389188
468	0.059533466
469	0.059680319
470	0.059828582
471	0.059979167
472	0.060131768
473	0.060297432
474	0.06047126
475	0.060651768
476	0.060839226
477	0.061032325
478	0.061232792
479	0.061438345
480	0.061638435
481	0.061842475
482	0.06205819
483	0.062280391
484	0.062513184
485	0.062766161
486	0.063028622
487	0.063297332
488	0.063572127
489	0.063852886
490	0.06413991
491	0.064430807
492	0.064723199
493	0.065022888
494	0.065325104
495	0.065631675
496	0.065952143
497	0.066282734
498	0.066622489
499	0.066971113
500	0.067326426
501	0.067681851
502	0.06804678
503	0.068419999
504	0.068798799
505	0.069177372
506	0.069548682
507	0.069919373
508	0.070293812
509	0.070669628
510	0.071052022
511	0.071437116
512	0.071819066
513	0.072203687
514	0.072604386
515	0.073016446
516	0.073439361
517	0.073864594
518	0.074287735
519	0.074711417
520	0.075125397
521	0.075540856
522	0.075959509
523	0.076381634
524	0.076808011
525	0.077240878
526	0.077677287
527	0.078114122
528	0.078548615
529	0.078976564
530	0.079398517
531	0.079811821
532	0.080209771
533	0.080607389
534	0.081002653
535	0.081398555
536	0.081792902
537	0.082184423
538	0.082572516
539	0.082947958
540	0.083326289
541	0.083709049
542	0.084094982
543	0.084479157
544	0.084858578
545	0.085233277
546	0.085599349
547	0.085958117
548	0.086311262
549	0.086655978
550	0.086989849
551	0.087310486
552	0.087632907
553	0.087949423
554	0.088259727
555	0.088564138
556	0.088863623
557	0.089157473
558	0.089444509
559	0.089729995
560	0.090011351
561	0.090277525
562	0.090547953
563	0.090821278
564	0.091094116
565	0.091361778
566	0.091624474
567	0.091883254
568	0.092137485
569	0.092383247
570	0.09262014
571	0.092849283
572	0.093066696
573	0.093273335
574	0.093487645
575	0.093698789
576	0.093909636
577	0.094120452
578	0.094329307
579	0.094537777
580	0.094745448
581	0.094950267
582	0.095154241
583	0.095358382
584	0.095562858
585	0.095769225
586	0.095981124
587	0.09619975
588	0.096425177
589	0.096655066
590	0.096885806
591	0.097118044
592	0.09735254
593	0.097585949
594	0.097813487
595	0.098031826
596	0.098241445
597	0.098444269
598	0.098641922
599	0.098833571
600	0.099018063
601	0.099199508
602	0.099380349
603	0.09956291
604	0.099750545
605	0.099941687
606	0.10013112
607	0.100314901
608	0.100493071
609	0.100664731
610	0.100829134
611	0.100988246
612	0.101154495
613	0.101332193
614	0.101515121
615	0.101695267
616	0.101873271
617	0.102052248
618	0.102220162
619	0.102379146
620	0.102534991
621	0.102681218
622	0.102826925
623	0.102982701
624	0.10315748
625	0.103352256
626	0.10356279
627	0.103788075
628	0.10402803
629	0.104275105
630	0.104517327
631	0.104768403
632	0.105020948
633	0.105261285
634	0.105498673
635	0.105733744
636	0.105963301
637	0.106190519
638	0.106419285
639	0.106647655
640	0.106868752
641	0.10708019
642	0.107286739
643	0.10749645
644	0.107700354
645	0.107897391
646	0.108094084
647	0.108294144
648	0.108494236
649	0.108692794
650	0.108894615
651	0.109096351
652	0.109299984
653	0.109510251
654	0.109727107
655	0.109944468
656	0.11015719
657	0.110367622
658	0.110577931
659	0.110789263
660	0.11099797
661	0.11120433
662	0.111410719
663	0.111617527
664	0.111829125
665	0.112047591
666	0.11226975
667	0.112488619
668	0.112708001
669	0.112933694
670	0.113164025
671	0.113397265
672	0.113631721
673	0.11386722
674	0.114108357
675	0.114354889
676	0.114594492
677	0.114845801
678	0.115106978
679	0.115373799
680	0.115644164
681	0.115915913
682	0.116192492
683	0.116483661
684	0.116791336
685	0.117111491
686	0.117438526
687	0.117765486
688	0.118089397
689	0.118429425
690	0.118772462
691	0.119114269
692	0.119450529
693	0.119784412
694	0.120128246
695	0.12049132
696	0.120871926
697	0.121270457
698	0.121683117
699	0.12211732
700	0.122551789
701	0.122983037
702	0.123408239
703	0.12383063
704	0.124248712
705	0.124662549
706	0.125075736
707	0.12548775
708	0.125906342
709	0.126341255
710	0.126787184
711	0.127247895
712	0.127709868
713	0.128188856
714	0.128691551
715	0.129220542
716	0.129765643
717	0.130312223
718	0.130850073
719	0.13137511
720	0.131888746
721	0.132403431
722	0.132895499
723	0.13337272
724	0.133841292
725	0.134307257
726	0.134773821
727	0.135240828
728	0.135696648
729	0.136130409
730	0.136547248
731	0.136957579
732	0.137367887
733	0.137782669
734	0.138182984
735	0.138578889
736	0.138969395
737	0.139354253
738	0.139736382
739	0.140116823
740	0.140483238
741	0.140837155
742	0.141188526
743	0.141541577
744	0.141902696
745	0.142244124
746	0.142570791
747	0.142885699
748	0.14319017
749	0.14348617
750	0.143777325
751	0.144066353
752	0.144349333
753	0.144624279
754	0.144897841
755	0.1451896
756	0.145541585
757	0.145934731
758	0.146374243
759	0.146844332
760	0.147315275
761	0.147756907
762	0.148134454
763	0.148458341
764	0.148711742
765	0.148887752
766	0.149011604
767	0.149128703
768	0.149282935
769	0.149469371
770	0.14968659
771	0.149931152
772	0.150190724
773	0.150454159
774	0.150709666
775	0.150977076
776	0.151242234
777	0.151503393
778	0.151763882
779	0.15202823
780	0.152297704
781	0.152566243
782	0.152832615
783	0.153106226
784	0.153387515
785	0.153674812
786	0.153964892
787	0.154255062
788	0.154540956
789	0.154817324
790	0.155090135
791	0.155361944
792	0.155633899
793	0.155902989
794	0.156169178
795	0.156439768
796	0.156717226
797	0.15699749
798	0.157280652
799	0.157563873
800	0.157844051
801	0.158119286
802	0.158389651
803	0.158651284
804	0.158906967
805	0.159161287
806	0.159415629
807	0.159671537
808	0.159933752
809	0.160201902
810	0.160482485
811	0.160778822
812	0.161093459
813	0.161422955
814	0.161745676
815	0.162051096
816	0.162337381
817	0.162605634
818	0.162864593
819	0.163114372
820	0.163352375
821	0.163574406
822	0.163788382
823	0.164010146
824	0.164247863
825	0.164497538
826	0.164741537
827	0.164977457
828	0.165212708
829	0.165451071
830	0.165695157
831	0.165942124
832	0.166176956
833	0.166392878
834	0.166597704
835	0.166806813
836	0.167022825
837	0.167242888
838	0.167462767
839	0.167681289
840	0.167902373
841	0.168118993
842	0.168338793
843	0.168567535
844	0.168788736
845	0.169008279
846	0.169230736
847	0.1694598
848	0.169692233
849	0.169929548
850	0.170171169
851	0.170406351
852	0.170638166
853	0.170869723
854	0.171108517
855	0.171344726
856	0.171566736
857	0.171786441
858	0.172014218
859	0.172231331
860	0.172434825
861	0.172639615
862	0.172847959
863	0.173058217
864	0.173279323
865	0.173503873
866	0.17373119
867	0.173956293
868	0.174173721
869	0.174402492
870	0.174643496
871	0.174869055
872	0.175098716
873	0.175330013
874	0.175560619
875	0.175806507
876	0.176033603
877	0.176261487
878	0.176497577
879	0.176730192
880	0.176962644
881	0.177211092
882	0.177467032
883	0.177723754
884	0.177989546
885	0.178245135
886	0.178485609
887	0.178723398
888	0.178944172
889	0.179184225
890	0.179423636
891	0.179654148
892	0.179888887
893	0.180124784
894	0.180374604
895	0.180641814
896	0.180913205
897	0.181185952
898	0.18145067
899	0.181711379
900	0.181969066
901	0.182214238
902	0.182438078
903	0.182653083
904	0.182868403
905	0.183087156
906	0.183328439
907	0.18358557
908	0.183845643
909	0.184111812
910	0.18437259
911	0.184629807
912	0.184891467
913	0.185155452
914	0.185401432
915	0.185641239
916	0.185882287
917	0.186121585
918	0.186368517
919	0.186598954
920	0.186787175
921	0.186960055
922	0.187121496
923	0.187280473
924	0.187442118
925	0.187613364
926	0.187774219
927	0.187920995
928	0.188046874
929	0.188143818
930	0.188234716
931	0.188328893
932	0.188425785
933	0.188551615
934	0.188698434
935	0.188897373
936	0.189171635
937	0.189508647
938	0.189841419
939	0.190130781
940	0.190373542
941	0.190581242
942	0.190777319
943	0.190990555
944	0.191186646
945	0.191335831
946	0.191501326
947	0.191741253
948	0.192021914
949	0.192230269
950	0.192382863
951	0.192531378
952	0.192706216
953	0.19293172
954	0.193183059
955	0.193453084
956	0.193732788
957	0.193993108
958	0.194280648
959	0.194588979
960	0.194855366
961	0.19506162
962	0.195289099
963	0.19553674
964	0.195805768
965	0.19605241
966	0.196248752
967	0.196488342
968	0.196747176
969	0.196959383
970	0.197134455
971	0.197323462
972	0.197532587
973	0.19776616
974	0.197992087
975	0.198222905
976	0.198446303
977	0.198612321
978	0.1987588
979	0.198903
980	0.199029698
981	0.19921379
982	0.19936915
983	0.199567067
984	0.199817514
985	0.200055202
986	0.200301023
987	0.200589817
988	0.200873669
989	0.201082685
990	0.201277147
991	0.20144464
992	0.201648099
993	0.201887137
994	0.202049979
995	0.202241851
996	0.202437457
997	0.202598011
998	0.202768928
999	0.20294788
1000	0.203115202
1001	0.203265639
1002	0.203468839
1003	0.203688208
1004	0.203908819
1005	0.204130847
1006	0.204366557
1007	0.204624695
1008	0.204873989
1009	0.205117959
1010	0.205354145
1011	0.205581042
1012	0.205803121
1013	0.206023283
1014	0.20624629
1015	0.206473946
1016	0.206708486
1017	0.206953465
1018	0.207204244
1019	0.207453708
1020	0.207696755
1021	0.207926502
1022	0.20814431
1023	0.208359365
1024	0.208577454
1025	0.20880071
1026	0.20903511
1027	0.209273751
1028	0.209515925
1029	0.209759231
1030	0.20999629
1031	0.210225284
1032	0.210444996
1033	0.210648923
1034	0.210846969
1035	0.211050076
1036	0.211255114
1037	0.21147005
1038	0.21169337
1039	0.211914864
1040	0.212139642
1041	0.212367733
1042	0.212599738
1043	0.212834586
1044	0.21306947
1045	0.213296291
1046	0.21352185
1047	0.213743192
1048	0.213957528
1049	0.214173553
1050	0.214386613
1051	0.214599943
1052	0.214822385
1053	0.215049354
1054	0.215281071
1055	0.21551495
1056	0.215747218
1057	0.215972734
1058	0.216192097
1059	0.216401693
1060	0.216606514
1061	0.216809372
1062	0.217010305
1063	0.21721984
1064	0.217433708
1065	0.217644001
1066	0.217858313
1067	0.218076327
1068	0.218293555
1069	0.21850906
1070	0.218719878
1071	0.218926874
1072	0.219130009
1073	0.219330811
1074	0.219533977
1075	0.219741825
1076	0.219949719
1077	0.220159187
1078	0.220372588
1079	0.220587753
1080	0.22080083
1081	0.221009474
1082	0.221216259
1083	0.221419786
1084	0.221611935
1085	0.221800036
1086	0.221990904
1087	0.222183197
1088	0.222381924
1089	0.22258787
1090	0.222797914
1091	0.223009485
1092	0.223217492
1093	0.223425358
1094	0.223639088
1095	0.223867383
1096	0.224068116
1097	0.224251397
1098	0.224423398
1099	0.224586514
1100	0.224748895
1101	0.224910174
1102	0.225070079
1103	0.225231779
1104	0.225397654
1105	0.225586836
1106	0.225805916
1107	0.226053894
1108	0.226289517
1109	0.226521472
1110	0.226740082
1111	0.226944064
1112	0.227130367
1113	0.227299517
1114	0.227469142
1115	0.227650996
1116	0.227853369
1117	0.228098918
1118	0.228359777
1119	0.228630727
1120	0.228924711
1121	0.229225104
1122	0.22955019
1123	0.229917085
1124	0.230301971
1125	0.230700451
1126	0.231119765
1127	0.231549773
1128	0.231991889
1129	0.232430158
1130	0.232832295
1131	0.233183372
1132	0.233496122
1133	0.233766203
1134	0.234016205
1135	0.234260384
1136	0.234488326
1137	0.234695599
1138	0.234889677
1139	0.235081968
1140	0.235284049
1141	0.235494632
1142	0.235711753
1143	0.235916651
1144	0.236112802
1145	0.236303999
1146	0.236491344
1147	0.236687402
1148	0.236893623
1149	0.237091889
1150	0.237288533
1151	0.237489805
1152	0.237676407
1153	0.23784973
1154	0.238007662
1155	0.238142449
1156	0.238267431
1157	0.238416366
1158	0.238545129
1159	0.238659949
1160	0.23876935
1161	0.238872945
1162	0.238978842
1163	0.239089233
1164	0.239194204
1165	0.239297663
1166	0.239403098
1167	0.23951038
1168	0.239638565
1169	0.239796982
1170	0.23993996
1171	0.240090723
1172	0.240249845
1173	0.240411562
1174	0.240578685
1175	0.24075624
1176	0.240941666
1177	0.241131211
1178	0.241324155
1179	0.241520176
1180	0.241722249
1181	0.24193726
1182	0.242155837
1183	0.242379059
1184	0.242595604
1185	0.242793873
1186	0.243006597
1187	0.24320012
1188	0.243378553
1189	0.243550578
1190	0.243715177
1191	0.24387829
1192	0.244044482
1193	0.244217263
1194	0.244388368
1195	0.244558891
1196	0.244728543
1197	0.244905083
1198	0.245106061
1199	0.245293965
1200	0.245484028
1201	0.245674138
1202	0.245856435
1203	0.246039343
1204	0.246227591
1205	0.24641881
1206	0.246606234
1207	0.246789529
1208	0.246971635
1209	0.247149805
1210	0.247326547
1211	0.247504152
1212	0.247674429
1213	0.247836845
1214	0.247993751
1215	0.248149138
1216	0.24830092
1217	0.248444909
1218	0.248581731
1219	0.248714031
1220	0.248843926
1221	0.248974227
1222	0.249106741
1223	0.249246469
1224	0.249383398
1225	0.249515341
1226	0.249649435
1227	0.249781863
1228	0.249917174
1229	0.250055035
1230	0.250193328
1231	0.250333955
1232	0.250477813
1233	0.250625766
1234	0.250772915
1235	0.250917624
1236	0.251050409
1237	0.251177592
1238	0.251306372
1239	0.25143791
1240	0.251580017
1241	0.251727657
1242	0.251869924
1243	0.25201252
1244	0.252158432
1245	0.252304947
1246	0.252448873
1247	0.252591522
1248	0.252732861
1249	0.252877249
1250	0.253026014
1251	0.253182498
1252	0.25334695
1253	0.253511388
1254	0.253674167
1255	0.253843182
1256	0.254016653
1257	0.25419548
1258	0.25437865
1259	0.254562077
1260	0.254743378
1261	0.25491948
1262	0.255087395
1263	0.255249463
1264	0.255411054
1265	0.255570432
1266	0.25572937
1267	0.255893424
1268	0.256064507
1269	0.256242181
1270	0.256420643
1271	0.256598293
1272	0.256769148
1273	0.256926244
1274	0.257073248
1275	0.257216271
1276	0.257357931
1277	0.257495855
1278	0.257631773
1279	0.257769953
1280	0.257912879
1281	0.258054454
1282	0.258194471
1283	0.258336878
1284	0.258473145
1285	0.258600342
1286	0.258721563
1287	0.258836821
1288	0.258947416
1289	0.259057562
1290	0.259174244
1291	0.259298034
1292	0.259429626
1293	0.259558293
1294	0.259685023
1295	0.259807294
1296	0.259919221
1297	0.260042379
1298	0.260136323
1299	0.260217044
1300	0.26029568
1301	0.260371564
1302	0.260453657
1303	0.260542414
1304	0.260633585
1305	0.260727651
1306	0.260832152
1307	0.260947572
1308	0.261079503
1309	0.261231346
1310	0.261369983
1311	0.261525574
1312	0.261682619
1313	0.261832859
1314	0.261980763
1315	0.26214134
1316	0.262270299
1317	0.262378397
1318	0.262474392
1319	0.262557028
1320	0.262648393
1321	0.262760751
1322	0.262879025
1323	0.262999958
1324	0.263114265
1325	0.263226933
1326	0.263348563
1327	0.263488161
1328	0.263604841
1329	0.263723818
1330	0.263857351
1331	0.264008412
1332	0.264192121
1333	0.26433513
1334	0.264406348
1335	0.264417866
1336	0.26440058
1337	0.264372107
1338	0.264337733
1339	0.264312775
1340	0.264289432
1341	0.264294362
1342	0.264367214
1343	0.264474881
1344	0.264585174
1345	0.26463409
1346	0.26463008
1347	0.264583512
1348	0.264527892
1349	0.264453624
1350	0.264343087
1351	0.264224133
1352	0.264144959
1353	0.264073332
1354	0.264003206
1355	0.263955329
1356	0.26385704
1357	0.263724597
1358	0.263828147
1359	0.264019165
1360	0.264080997
1361	0.263998767
1362	0.263566727
1363	0.262820356
1364	0.26212318
1365	0.262102147
1366	0.26282235
1367	0.263325049
1368	0.263451233
1369	0.264577749
1370	0.267672309
1371	0.272757993
1372	0.278538145
1373	0.281954631
1374	0.282744696
1375	0.283223758
1376	0.283763912
1377	0.285499551
1378	0.286171559
1379	0.285026732
1380	0.281706637
1381	0.278203131
1382	0.277242405
1383	0.278791279
1384	0.279956228
1385	0.279597777
1386	0.27908012
1387	0.279076839
1388	0.279438585
1389	0.280837713
1390	0.281011089
1391	0.279950507
1392	0.276629437
1393	0.272861707
1394	0.270910941
1395	0.269543127
1396	0.267876383
1397	0.266760254
1398	0.264686151
1399	0.261375191
1400	0.258708834
1401	0.256966221
1402	0.255774031
1403	0.255241971
1404	0.254956201
1405	0.255043895
1406	0.255775215
1407	0.256632554
1408	0.257771345
1409	0.258947354
1410	0.259376043
1411	0.259372924
1412	0.25939857
1413	0.259363122
1414	0.259381227
1415	0.259471188
1416	0.259302335
1417	0.259050035
1418	0.258963091
1419	0.259075579
1420	0.259402355
1421	0.259715494
1422	0.259861068
1423	0.259810688
1424	0.259603992
1425	0.259383503
1426	0.25921967
1427	0.259091652
1428	0.258994681
1429	0.259002887
1430	0.259123908
1431	0.259364858
1432	0.259671336
1433	0.259945949
1434	0.260120382
1435	0.260196435
1436	0.260255489
1437	0.260326265
1438	0.260407045
1439	0.260493629
1440	0.260576368
1441	0.26068078
1442	0.260818783
1443	0.260991724
1444	0.261190135
1445	0.261390955
1446	0.261583597
1447	0.261741349
1448	0.261887933
1449	0.262006002
1450	0.262117575
1451	0.262242759
1452	0.262376754
1453	0.262537961
1454	0.262683949
1455	0.26279866
1456	0.262873865
1457	0.262932892
1458	0.26297173
1459	0.26298986
1460	0.263055134
1461	0.263142721
1462	0.26325108
1463	0.263386287
1464	0.263545201
1465	0.263726512
1466	0.263882579
1467	0.264031914
1468	0.264165826
1469	0.264293159
1470	0.264445752
1471	0.264631586
1472	0.264826448
1473	0.265016233
1474	0.265196218
1475	0.265361418
1476	0.26553621
1477	0.265722434
1478	0.265890209
1479	0.266056709
1480	0.266230184
1481	0.266406015
1482	0.266612146
1483	0.266829629
1484	0.267029232
1485	0.267227838
1486	0.267422557
1487	0.26760182
1488	0.267778214
1489	0.267937164
1490	0.268053518
1491	0.268148864
1492	0.268242978
1493	0.268330784
1494	0.268420354
1495	0.268520698
1496	0.268626126
1497	0.268732141
1498	0.268843781
1499	0.268963984
1500	0.269095277
1501	0.269235937
1502	0.269378976
1503	0.269531064
1504	0.26969284
1505	0.269848496
1506	0.26999911
1507	0.270167837
1508	0.270301724
1509	0.270402183
1510	0.270484291
1511	0.270562079
1512	0.270640756
1513	0.270728208
1514	0.270830052
1515	0.270944885
1516	0.271069074
1517	0.27120387
1518	0.271358944
1519	0.271534586
1520	0.271685782
1521	0.271850313
1522	0.271984962
1523	0.272106273
1524	0.272218612
1525	0.272325241
1526	0.272431095
1527	0.27253391
1528	0.272633749
1529	0.272744177
1530	0.27287484
1531	0.27302213
1532	0.273184054
1533	0.27335561
1534	0.273495297
1535	0.273636753
1536	0.273796865
1537	0.273930212
1538	0.274047461
1539	0.274144279
1540	0.274220071
1541	0.274291931
1542	0.274365277
1543	0.274438205
1544	0.27451998
1545	0.274610906
1546	0.274711662
1547	0.274833165
1548	0.274974001
1549	0.275086882
1550	0.275196528
1551	0.275295148
1552	0.27538596
1553	0.275482193
1554	0.275581634
1555	0.275675928
1556	0.275765725
1557	0.275856678
1558	0.275953696
1559	0.276062478
1560	0.276184884
1561	0.276315105
1562	0.276446093
1563	0.276579702
1564	0.2767227
1565	0.276869003
1566	0.277006657
1567	0.27713136
1568	0.277248328
1569	0.277369701
1570	0.277498648
