wavelength	0
350	0.0308885374024
351	0.0309370829129
352	0.0309938818747
353	0.0310589342875
354	0.0311322401515
355	0.0312137994667
356	0.031303612233
357	0.0313891464776
358	0.0314920715212
359	0.0316130757997
360	0.0317407056752
361	0.031881086758
362	0.0320160304437
363	0.0321096310979
364	0.0322031694015
365	0.0323033759092
366	0.0324083567572
367	0.0325399852308
368	0.0326968272692
369	0.0328674923496
370	0.0330553247155
371	0.0332554449303
372	0.0334556039979
373	0.0336611621956
374	0.033902669674
375	0.0341379997524
376	0.0343501884543
377	0.0345553445787
378	0.0347746459144
379	0.0350066464475
380	0.0352583349077
381	0.0355346348856
382	0.0358223972458
383	0.0361193203681
384	0.036425210809
385	0.0367552310976
386	0.0370894741169
387	0.0373900532211
388	0.0376547775094
389	0.0379180524407
390	0.0382069276948
391	0.0385012533457
392	0.0388144590212
393	0.0391574328506
394	0.0395010606073
395	0.039826148284
396	0.0401330192595
397	0.0404205299681
398	0.0406717447239
399	0.040892237661
400	0.0410914611945
401	0.0412917601966
402	0.0415008245889
403	0.0417229883002
404	0.0419743839844
405	0.0422392191763
406	0.042501590853
407	0.0427642305008
408	0.0430260114081
409	0.0432826228673
410	0.0435351686745
411	0.0437879921883
412	0.0440429193749
413	0.0442967495452
414	0.0445502282902
415	0.0448133159827
416	0.0450869046712
417	0.0453605333694
418	0.0456357088036
419	0.0459203128392
420	0.0462051082966
421	0.0465038831101
422	0.0468126202198
423	0.047127831129
424	0.0474529771904
425	0.0477870240667
426	0.0481303268697
427	0.0484895670838
428	0.0488646683142
429	0.0492509029234
430	0.0496427038104
431	0.0500348513561
432	0.0504189949755
433	0.0507983987875
434	0.0511674536044
435	0.0515304764758
436	0.0518949110635
437	0.0522635190633
438	0.0526315774072
439	0.0529913850583
440	0.053351645286
441	0.0537125923817
442	0.0540677364219
443	0.0544115061999
444	0.054740987469
445	0.0550568284743
446	0.0553622259619
447	0.0556569339353
448	0.055939403113
449	0.0562082724133
450	0.0564591147169
451	0.0566866758738
452	0.0569027278717
453	0.0571097130074
454	0.0573087757931
455	0.0574993141314
456	0.0576849275786
457	0.057869955282
458	0.058046280606
459	0.0582107896111
460	0.0583672363675
461	0.0585214547395
462	0.0586742203287
463	0.0588203744267
464	0.0589621538605
465	0.0591026898065
466	0.0592448244862
467	0.0593891881823
468	0.0595334663176
469	0.0596803186153
470	0.0598285818191
471	0.0599791667643
472	0.0601317677556
473	0.0602974320405
474	0.0604712601206
475	0.0606517684954
476	0.0608392256296
477	0.061032325335
478	0.0612327921825
479	0.0614383451717
480	0.0616384351562
481	0.0618424754726
482	0.0620581896683
483	0.0622803905524
484	0.0625131837866
485	0.0627661606378
486	0.063028622036
487	0.0632973316098
488	0.0635721271744
489	0.0638528864073
490	0.0641399099042
491	0.0644308072242
492	0.0647231985962
493	0.0650228877598
494	0.0653251035323
495	0.0656316752664
496	0.0659521426378
497	0.0662827341239
498	0.066622489088
499	0.0669711132934
500	0.0673264259957
501	0.067681850683
502	0.0680467800148
503	0.0684199987428
504	0.0687987993694
505	0.0691773720338
506	0.0695486815712
507	0.0699193728832
508	0.0702938117174
509	0.0706696281078
510	0.0710520220017
511	0.0714371163463
512	0.0718190662068
513	0.0722036868006
514	0.0726043857485
515	0.073016445708
516	0.0734393607568
517	0.0738645941225
518	0.0742877352096
519	0.0747114166716
520	0.0751253972799
521	0.0755408559728
522	0.0759595092513
523	0.0763816335348
524	0.0768080110012
525	0.0772408777628
526	0.0776772870258
527	0.0781141223894
528	0.0785486147467
529	0.0789765644499
530	0.0793985169662
531	0.0798118213311
532	0.0802097709586
533	0.0806073889623
534	0.0810026532672
535	0.0813985549294
536	0.0817929016293
537	0.0821844234866
538	0.0825725160755
539	0.0829479580429
540	0.0833262891164
541	0.0837090488172
542	0.0840949821127
543	0.084479157164
544	0.0848585783038
545	0.0852332768671
546	0.0855993491629
547	0.0859581166029
548	0.0863112618919
549	0.086655977678
550	0.0869898487342
551	0.0873104855526
552	0.0876329068544
553	0.0879494226848
554	0.0882597269139
555	0.0885641384847
556	0.0888636229578
557	0.0891574727079
558	0.0894445094828
559	0.0897299948526
560	0.090011351207
561	0.0902775250792
562	0.0905479529398
563	0.0908212781855
564	0.0910941164991
565	0.0913617778899
566	0.0916244742957
567	0.0918832536737
568	0.0921374853937
569	0.0923832466401
570	0.0926201404823
571	0.0928492829939
572	0.0930666956768
573	0.0932733345866
574	0.0934876450825
575	0.0936987894781
576	0.0939096359893
577	0.0941204516194
578	0.0943293072743
579	0.09453777684
580	0.0947454475325
581	0.0949502670594
582	0.0951542407655
583	0.0953583821621
584	0.0955628576845
585	0.0957692245791
586	0.0959811238526
587	0.096199750067
588	0.0964251766018
589	0.0966550657416
590	0.0968858056345
591	0.0971180438496
592	0.0973525404181
593	0.0975859487249
594	0.0978134870003
595	0.0980318261209
596	0.0982414452571
597	0.0984442688354
598	0.0986419220126
599	0.0988335707933
600	0.0990180628695
601	0.0991995075621
602	0.0993803485636
603	0.0995629096292
604	0.0997505451074
605	0.099941687428
606	0.100131119586
607	0.100314901018
608	0.100493071467
609	0.100664731335
610	0.100829134331
611	0.100988246489
612	0.101154495386
613	0.10133219342
614	0.101515121362
615	0.101695267456
616	0.101873271046
617	0.102052247782
618	0.102220161866
619	0.10237914611
620	0.102534991436
621	0.102681218225
622	0.102826925245
623	0.102982700957
624	0.103157479792
625	0.103352255906
626	0.103562789724
627	0.103788074621
628	0.104028030198
629	0.104275105015
630	0.104517326752
631	0.104768402716
632	0.105020948241
633	0.105261284816
634	0.105498673411
635	0.105733744291
636	0.105963300784
637	0.106190518526
638	0.106419284857
639	0.106647655125
640	0.106868751589
641	0.10708018995
642	0.107286738537
643	0.107496449644
644	0.107700354036
645	0.107897391202
646	0.108094083651
647	0.108294143615
648	0.108494235888
649	0.108692794042
650	0.108894614578
651	0.109096350915
652	0.109299984354
653	0.109510250972
654	0.109727106583
655	0.109944467713
656	0.110157189991
657	0.110367621655
658	0.110577931054
659	0.11078926265
660	0.110997970336
661	0.111204329876
662	0.111410719033
663	0.111617526637
664	0.111829124947
665	0.112047591404
666	0.112269750148
667	0.112488618852
668	0.112708001157
669	0.112933694048
670	0.113164024588
671	0.113397264891
672	0.113631720737
673	0.113867220263
674	0.114108356743
675	0.114354889274
676	0.114594491642
677	0.114845800847
678	0.115106977878
679	0.115373799113
680	0.115644163757
681	0.115915913217
682	0.116192492078
683	0.116483660987
684	0.116791336213
685	0.117111491019
686	0.117438525787
687	0.117765486191
688	0.118089397354
689	0.118429424554
690	0.118772462264
691	0.119114269286
692	0.119450528774
693	0.119784411591
694	0.120128245622
695	0.120491319874
696	0.120871926288
697	0.121270456512
698	0.121683116829
699	0.122117320432
700	0.12255178934
701	0.122983037081
702	0.123408238797
703	0.123830630061
704	0.124248711609
705	0.124662549369
706	0.125075735642
707	0.12548774986
708	0.125906341561
709	0.126341255179
710	0.126787183813
711	0.127247894673
712	0.127709868325
713	0.128188856103
714	0.128691550798
715	0.129220542384
716	0.129765642883
717	0.130312222742
718	0.130850072657
719	0.131375110271
720	0.131888746438
721	0.132403430744
722	0.132895498796
723	0.133372720342
724	0.133841292275
725	0.134307256712
726	0.13477382138
727	0.135240827628
728	0.135696648374
729	0.136130409152
730	0.136547247649
731	0.136957578836
732	0.137367887049
733	0.137782669262
734	0.138182983957
735	0.13857888929
736	0.138969394667
737	0.139354253115
738	0.139736381562
739	0.140116823073
740	0.140483238401
741	0.140837154943
742	0.141188526438
743	0.1415415773
744	0.141902696014
745	0.142244123841
746	0.142570791212
747	0.142885699053
748	0.14319016988
749	0.143486170304
750	0.143777325356
751	0.14406635312
752	0.144349333075
753	0.144624279463
754	0.144897841479
755	0.145189599982
756	0.145541585322
757	0.145934731257
758	0.146374242801
759	0.146844332039
760	0.147315274801
761	0.147756907374
762	0.148134453819
763	0.148458340876
764	0.14871174158
765	0.148887752011
766	0.149011604293
767	0.149128702539
768	0.149282935185
769	0.149469371026
770	0.14968659019
771	0.149931152447
772	0.150190724219
773	0.150454159066
774	0.15070966613
775	0.15097707645
776	0.151242234069
777	0.151503392871
778	0.151763882303
779	0.152028230484
780	0.152297704026
781	0.152566243488
782	0.15283261479
783	0.15310622591
784	0.153387515278
785	0.153674812046
786	0.153964892374
787	0.154255062301
788	0.15454095628
789	0.154817324295
790	0.155090134846
791	0.155361943985
792	0.155633899385
793	0.155902988545
794	0.156169177529
795	0.156439767559
796	0.156717226353
797	0.156997490199
798	0.157280651875
799	0.157563873191
800	0.157844051192
801	0.158119286329
802	0.158389650947
803	0.158651283548
804	0.158906966719
805	0.159161286513
806	0.159415629219
807	0.15967153661
808	0.159933752085
809	0.160201902462
810	0.16048248459
811	0.160778822315
812	0.161093459184
813	0.161422955033
814	0.161745675822
815	0.16205109635
816	0.162337380949
817	0.162605633884
818	0.162864592642
819	0.163114371728
820	0.163352375003
821	0.163574406497
822	0.163788381735
823	0.164010145652
824	0.164247863374
825	0.164497538384
826	0.164741536625
827	0.164977457004
828	0.165212708307
829	0.16545107117
830	0.165695156525
831	0.165942124488
832	0.166176955561
833	0.166392878423
834	0.166597703513
835	0.166806812687
836	0.167022825134
837	0.167242887579
838	0.167462767235
839	0.16768128859
840	0.167902372818
841	0.16811899285
842	0.168338792845
843	0.168567535325
844	0.168788736041
845	0.16900827942
846	0.169230736451
847	0.169459799624
848	0.169692232685
849	0.169929548032
850	0.170171168731
851	0.170406350938
852	0.170638166362
853	0.170869723115
854	0.171108517383
855	0.171344726428
856	0.171566736019
857	0.171786441374
858	0.17201421836
859	0.172231331364
860	0.172434824993
861	0.172639615418
862	0.172847958877
863	0.173058217072
864	0.173279323392
865	0.173503872914
866	0.173731190377
867	0.17395629271
868	0.174173720972
869	0.174402491677
870	0.174643495532
871	0.174869054882
872	0.175098715538
873	0.175330013344
874	0.175560618815
875	0.175806507438
876	0.176033602627
877	0.176261487452
878	0.176497577109
879	0.176730192042
880	0.176962644353
881	0.177211092187
882	0.177467031783
883	0.177723753885
884	0.177989546279
885	0.178245134626
886	0.178485609423
887	0.178723397947
888	0.178944172404
889	0.179184225451
890	0.179423635647
891	0.179654148073
892	0.179888886521
893	0.180124783996
894	0.180374603668
895	0.180641813583
896	0.180913204652
897	0.18118595152
898	0.181450669865
899	0.181711379162
900	0.181969065589
901	0.182214237872
902	0.182438078141
903	0.182653083187
904	0.182868403423
905	0.183087156475
906	0.18332843868
907	0.18358557023
908	0.183845643447
909	0.184111812271
910	0.18437259005
911	0.18462980714
912	0.184891467086
913	0.185155452065
914	0.185401431679
915	0.185641239293
916	0.185882286601
917	0.186121585397
918	0.18636851698
919	0.186598953616
920	0.186787175315
921	0.186960055375
922	0.187121495635
923	0.187280472703
924	0.187442118469
925	0.187613363956
926	0.187774219259
927	0.18792099549
928	0.188046874399
929	0.188143818396
930	0.188234716151
931	0.188328893455
932	0.188425784542
933	0.188551614523
934	0.188698434271
935	0.188897372589
936	0.18917163476
937	0.189508646888
938	0.18984141889
939	0.190130780632
940	0.190373541864
941	0.190581242287
942	0.190777319359
943	0.190990554731
944	0.191186646404
945	0.191335830653
946	0.191501325665
947	0.191741253346
948	0.192021913627
949	0.19223026942
950	0.192382862612
951	0.192531378251
952	0.192706215653
953	0.192931720113
954	0.1931830585
955	0.193453083812
956	0.193732788397
957	0.193993107787
958	0.194280647584
959	0.19458897873
960	0.194855365996
961	0.195061619672
962	0.19528909916
963	0.195536739874
964	0.195805768361
965	0.196052409561
966	0.196248752272
967	0.19648834245
968	0.196747175733
969	0.19695938265
970	0.197134454855
971	0.19732346196
972	0.197532586589
973	0.197766160227
974	0.197992086547
975	0.198222904586
976	0.198446303022
977	0.198612321213
978	0.198758799513
979	0.198902999512
980	0.199029698412
981	0.19921379012
982	0.199369149866
983	0.199567067285
984	0.199817514176
985	0.200055201737
986	0.200301022563
987	0.20058981745
988	0.200873668637
989	0.201082684683
990	0.201277147314
991	0.201444640015
992	0.201648099062
993	0.201887137307
994	0.202049979197
995	0.202241850789
996	0.202437456739
997	0.202598010661
998	0.202768927501
999	0.20294787987
1000	0.203115201866
1001	0.203265639354
1002	0.203468838657
1003	0.203688207994
1004	0.203908818874
1005	0.204130846928
1006	0.204366556506
1007	0.204624694781
1008	0.204873988622
1009	0.20511795885
1010	0.205354144974
1011	0.205581041719
1012	0.205803120725
1013	0.20602328265
1014	0.20624629008
1015	0.206473946436
1016	0.206708486358
1017	0.206953464943
1018	0.207204243657
1019	0.20745370835
1020	0.207696754728
1021	0.207926502448
1022	0.208144309611
1023	0.208359364881
1024	0.208577454294
1025	0.208800709953
1026	0.209035109798
1027	0.209273750562
1028	0.209515924521
1029	0.209759230684
1030	0.209996290019
1031	0.210225283765
1032	0.210444995586
1033	0.210648922512
1034	0.210846968512
1035	0.211050076416
1036	0.211255114361
1037	0.211470049824
1038	0.211693369824
1039	0.211914863886
1040	0.21213964218
1041	0.212367733456
1042	0.212599737898
1043	0.21283458589
1044	0.213069469837
1045	0.213296291394
1046	0.213521849528
1047	0.213743192226
1048	0.213957527746
1049	0.214173553196
1050	0.214386613091
1051	0.214599942973
1052	0.21482238492
1053	0.215049354317
1054	0.215281070954
1055	0.215514950312
1056	0.215747218364
1057	0.215972734493
1058	0.21619209695
1059	0.216401692589
1060	0.216606513887
1061	0.216809372272
1062	0.217010304936
1063	0.21721984037
1064	0.217433708035
1065	0.217644001366
1066	0.217858313409
1067	0.21807632745
1068	0.218293555279
1069	0.218509059798
1070	0.2187198776
1071	0.218926873891
1072	0.219130009328
1073	0.21933081081
1074	0.219533977446
1075	0.219741824842
1076	0.219949719448
1077	0.220159186739
1078	0.220372587811
1079	0.220587753302
1080	0.220800829579
1081	0.2210094736
1082	0.221216259409
1083	0.22141978596
1084	0.221611934906
1085	0.221800036474
1086	0.221990903835
1087	0.222183197016
1088	0.222381924313
1089	0.222587870123
1090	0.22279791364
1091	0.223009484547
1092	0.223217491755
1093	0.223425357536
1094	0.223639088079
1095	0.223867383389
1096	0.224068116297
1097	0.224251397041
1098	0.224423398434
1099	0.22458651364
1100	0.224748894621
1101	0.224910174331
1102	0.225070078976
1103	0.225231779283
1104	0.225397653694
1105	0.225586835733
1106	0.225805916252
1107	0.226053893881
1108	0.226289516845
1109	0.226521471806
1110	0.226740081674
1111	0.226944063758
1112	0.227130366982
1113	0.227299516644
1114	0.227469141723
1115	0.227650996385
1116	0.227853369466
1117	0.228098918116
1118	0.228359777304
1119	0.22863072714
1120	0.22892471091
1121	0.229225103515
1122	0.229550190237
1123	0.229917084584
1124	0.230301970951
1125	0.230700451459
1126	0.231119764881
1127	0.231549773256
1128	0.231991888936
1129	0.232430157616
1130	0.232832294737
1131	0.233183371697
1132	0.233496122102
1133	0.233766202773
1134	0.234016204952
1135	0.234260383782
1136	0.234488325704
1137	0.23469559881
1138	0.234889676833
1139	0.235081968489
1140	0.235284049466
1141	0.235494631924
1142	0.235711752802
1143	0.235916650756
1144	0.236112802259
1145	0.236303998927
1146	0.236491343881
1147	0.23668740249
1148	0.236893623049
1149	0.237091889004
1150	0.237288533277
1151	0.237489804729
1152	0.237676407485
1153	0.237849730109
1154	0.238007661801
1155	0.238142448793
1156	0.238267430501
1157	0.2384163659
1158	0.238545128515
1159	0.238659949073
1160	0.238769349761
1161	0.238872944513
1162	0.238978841931
1163	0.239089233244
1164	0.239194204137
1165	0.239297662791
1166	0.23940309782
1167	0.23951037968
1168	0.239638564956
1169	0.239796982175
1170	0.239939959569
1171	0.240090723009
1172	0.240249844687
1173	0.240411562412
1174	0.240578685416
1175	0.240756239594
1176	0.240941666283
1177	0.241131211346
1178	0.241324154532
1179	0.241520176165
1180	0.241722249363
1181	0.24193725999
1182	0.242155836915
1183	0.242379059048
1184	0.242595604133
1185	0.242793873472
1186	0.243006596657
1187	0.243200120185
1188	0.243378552652
1189	0.243550578428
1190	0.243715177079
1191	0.24387829049
1192	0.244044482208
1193	0.244217262921
1194	0.244388368239
1195	0.244558891184
1196	0.244728542861
1197	0.244905082839
1198	0.245106061404
1199	0.245293964877
1200	0.245484028081
1201	0.245674137821
1202	0.245856435203
1203	0.246039342785
1204	0.24622759112
1205	0.246418810423
1206	0.246606233735
1207	0.24678952938
1208	0.246971634634
1209	0.247149805348
1210	0.24732654714
1211	0.247504152077
1212	0.247674428672
1213	0.247836844966
1214	0.247993751249
1215	0.24814913832
1216	0.248300919928
1217	0.24844490906
1218	0.248581731231
1219	0.248714031499
1220	0.248843925645
1221	0.248974227058
1222	0.249106741277
1223	0.249246468661
1224	0.249383398127
1225	0.249515340535
1226	0.249649434974
1227	0.249781862826
1228	0.249917173808
1229	0.250055034943
1230	0.250193327802
1231	0.250333954721
1232	0.250477813359
1233	0.250625765679
1234	0.250772914926
1235	0.25091762364
1236	0.251050409174
1237	0.251177592094
1238	0.251306371824
1239	0.251437909839
1240	0.251580016876
1241	0.251727656769
1242	0.251869923967
1243	0.25201252031
1244	0.25215843201
1245	0.252304947136
1246	0.25244887322
1247	0.252591522499
1248	0.252732861026
1249	0.252877249051
1250	0.253026013509
1251	0.253182498261
1252	0.253346950455
1253	0.253511388235
1254	0.253674167098
1255	0.25384318215
1256	0.254016653094
1257	0.254195479823
1258	0.254378650021
1259	0.254562076636
1260	0.254743378119
1261	0.254919479609
1262	0.255087395107
1263	0.255249463087
1264	0.255411054492
1265	0.255570432299
1266	0.255729369904
1267	0.255893423878
1268	0.256064506566
1269	0.256242181074
1270	0.256420642971
1271	0.256598292775
1272	0.256769148376
1273	0.256926244399
1274	0.257073247804
1275	0.257216271079
1276	0.257357931097
1277	0.257495854872
1278	0.257631773295
1279	0.257769952988
1280	0.257912879467
1281	0.258054453703
1282	0.258194470637
1283	0.258336878495
1284	0.2584731449
1285	0.258600341757
1286	0.258721562953
1287	0.258836820655
1288	0.258947416444
1289	0.259057561839
1290	0.259174244037
1291	0.259298034281
1292	0.259429626363
1293	0.259558292899
1294	0.259685023293
1295	0.259807294315
1296	0.259919221267
1297	0.26004237888
1298	0.260136323082
1299	0.260217044182
1300	0.26029567993
1301	0.260371563674
1302	0.260453656801
1303	0.260542413633
1304	0.260633584534
1305	0.260727651079
1306	0.26083215231
1307	0.260947571844
1308	0.261079502716
1309	0.261231346216
1310	0.261369982982
1311	0.261525574275
1312	0.261682619189
1313	0.261832858765
1314	0.26198076299
1315	0.262141340068
1316	0.262270298558
1317	0.262378397462
1318	0.262474392391
1319	0.262557028314
1320	0.262648392509
1321	0.262760750932
1322	0.262879024783
1323	0.262999958291
1324	0.263114265428
1325	0.263226933228
1326	0.26334856319
1327	0.263488161272
1328	0.263604840588
1329	0.263723818264
1330	0.263857350768
1331	0.264008412094
1332	0.264192120709
1333	0.264335130442
1334	0.264406348173
1335	0.264417866363
1336	0.264400579872
1337	0.264372107362
1338	0.264337733336
1339	0.264312775301
1340	0.264289431564
1341	0.264294361595
1342	0.264367214034
1343	0.264474880533
1344	0.264585174078
1345	0.264634089663
1346	0.264630080122
1347	0.264583512395
1348	0.264527892228
1349	0.264453624302
1350	0.264343087386
1351	0.264224133289
1352	0.264144958551
1353	0.264073331847
1354	0.264003205972
1355	0.263955328535
1356	0.263857039556
1357	0.263724597478
1358	0.263828147239
1359	0.264019165204
1360	0.264080996603
1361	0.263998767269
1362	0.263566726652
1363	0.26282035557
1364	0.262123179853
1365	0.262102146649
1366	0.262822349825
1367	0.263325048709
1368	0.263451232581
1369	0.264577749393
1370	0.267672309373
1371	0.272757992582
1372	0.278538145258
1373	0.281954630811
1374	0.282744695514
